 % time (yr) / surface air temperature (degrees C)
       0.500    8.715740
       1.500   11.906938
       2.500   13.554436
       3.500   14.600130
       4.500   15.340719
       5.500   15.911950
       6.500   16.376660
       7.500   16.767755
       8.500   17.105069
       9.500   17.401644
      10.500   17.665249
      11.500   17.902438
      12.500   18.120237
      13.500   18.320294
      14.500   18.506525
      15.500   18.680391
      16.500   18.841795
      17.500   18.994717
      18.500   19.140074
      19.500   19.279860
      21.500   19.534072
      23.500   19.758539
      25.500   19.958421
      27.500   20.138370
      29.500   20.305527
      31.500   20.456232
      33.500   20.596047
      35.500   20.727595
      37.500   20.851793
      39.500   20.964843
      41.500   21.071330
      43.500   21.170573
      45.500   21.264320
      47.500   21.349474
      49.500   21.424573
      51.500   21.491134
      53.500   21.550575
      55.500   21.603694
      57.500   21.649081
      59.500   21.689302
      61.500   21.726353
      63.500   21.762290
      65.500   21.795547
      67.500   21.826905
      69.500   21.855957
      71.500   21.881962
      73.500   21.905299
      75.500   21.925910
      77.500   21.943985
      79.500   21.959792
      81.500   21.974145
      83.500   21.987217
      85.500   21.999554
      87.500   22.011552
      89.500   22.023344
      91.500   22.035253
      93.500   22.047708
      95.500   22.059768
      97.500   22.071119
      99.500   22.083045
     104.500   22.111139
     109.500   22.139986
     114.500   22.167027
     119.500   22.193188
     124.500   22.216628
     129.500   22.238437
     134.500   22.258746
     139.500   22.276887
     144.500   22.294274
     149.500   22.310436
     154.500   22.325116
     159.500   22.337573
     164.500   22.347176
     169.500   22.355973
     174.500   22.362854
     179.500   22.367020
     184.500   22.370714
     189.500   22.373623
     194.500   22.375915
     199.500   22.377574
     204.500   22.378730
     209.500   22.379581
     214.500   22.379832
     219.500   22.379561
     224.500   22.379007
     229.500   22.377856
     234.500   22.376513
     239.500   22.374526
     244.500   22.372199
     249.500   22.369410
     254.500   22.366195
     259.500   22.362606
     264.500   22.358592
     269.500   22.353991
     274.500   22.349445
     279.500   22.344800
     284.500   22.339951
     289.500   22.334957
     294.500   22.329856
     299.500   22.324676
     304.500   22.319698
     309.500   22.314653
     314.500   22.309067
     319.500   22.303530
     324.500   22.297945
     329.500   22.292316
     334.500   22.286684
     339.500   22.281161
     344.500   22.275740
     349.500   22.270150
     354.500   22.264657
     359.500   22.259402
     364.500   22.254073
     369.500   22.248597
     374.500   22.243025
     379.500   22.237423
     384.500   22.231832
     389.500   22.226263
     394.500   22.220720
     399.500   22.215266
     404.500   22.209694
     409.500   22.204600
     414.500   22.199532
     419.500   22.194021
     424.500   22.188621
     429.500   22.182761
     434.500   22.177158
     439.500   22.171364
     444.500   22.165736
     449.500   22.160343
     454.500   22.155288
     459.500   22.150081
     464.500   22.144949
     469.500   22.139935
     474.500   22.135044
     479.500   22.130282
     484.500   22.126027
     489.500   22.121795
     494.500   22.117848
     499.500   22.113787
     504.500   22.109430
     509.500   22.105054
     514.500   22.100669
     519.500   22.096507
     524.500   22.092226
     529.500   22.088038
     534.500   22.084149
     539.500   22.080380
     544.500   22.076560
     549.500   22.072629
     554.500   22.068811
     559.500   22.065084
     564.500   22.061436
     569.500   22.057717
     574.500   22.054063
     579.500   22.050542
     584.500   22.047217
     589.500   22.043943
     594.500   22.040559
     599.500   22.037265
     604.500   22.033875
     609.500   22.030491
     614.500   22.027147
     619.500   22.023902
     624.500   22.020865
     629.500   22.017937
     634.500   22.014914
     639.500   22.011796
     644.500   22.008709
     649.500   22.005641
     654.500   22.002925
     659.500   21.999839
     664.500   21.996794
     669.500   21.993921
     674.500   21.991069
     679.500   21.988313
     684.500   21.985441
     689.500   21.982547
     694.500   21.979637
     699.500   21.976755
     704.500   21.973874
     709.500   21.971033
     714.500   21.968603
     719.500   21.966156
     724.500   21.963736
     729.500   21.962316
     734.500   21.960173
     739.500   21.957174
     744.500   21.954189
     749.500   21.950865
     754.500   21.947362
     759.500   21.943728
     764.500   21.940108
     769.500   21.935903
     774.500   21.931299
     779.500   21.925324
     784.500   21.916700
     789.500   21.908319
     794.500   21.901476
     799.500   21.896928
     804.500   21.893679
     809.500   21.891297
     814.500   21.889324
     819.500   21.887841
     824.500   21.886367
     829.500   21.884618
     834.500   21.882943
     839.500   21.881136
     844.500   21.879335
     849.500   21.877102
     854.500   21.874600
     859.500   21.872013
     864.500   21.869504
     869.500   21.867080
     874.500   21.864865
     879.500   21.862987
     884.500   21.861124
     889.500   21.859389
     894.500   21.857913
     899.500   21.856655
     904.500   21.855247
     909.500   21.853868
     914.500   21.852511
     919.500   21.851122
     924.500   21.849944
     929.500   21.848542
     934.500   21.847129
     939.500   21.845611
     944.500   21.844060
     949.500   21.842360
     954.500   21.840731
     959.500   21.839000
     964.500   21.837304
     969.500   21.835515
     974.500   21.833707
     979.500   21.831885
     984.500   21.830318
     989.500   21.828492
     994.500   21.826676
     999.500   21.825043
    1019.500   21.818189
    1039.500   21.811403
    1059.500   21.804531
    1079.500   21.798017
    1099.500   21.791705
    1119.500   21.785184
    1139.500   21.779210
    1159.500   21.772883
    1179.500   21.767162
    1199.500   21.761612
    1219.500   21.756657
    1239.500   21.751933
    1259.500   21.746702
    1279.500   21.741680
    1299.500   21.737082
    1319.500   21.732077
    1339.500   21.727218
    1359.500   21.722389
    1379.500   21.717819
    1399.500   21.713821
    1419.500   21.709515
    1439.500   21.705252
    1459.500   21.701223
    1479.500   21.697114
    1499.500   21.693249
    1519.500   21.689577
    1539.500   21.685987
    1559.500   21.682467
    1579.500   21.678964
    1599.500   21.675533
    1619.500   21.672237
    1639.500   21.669061
    1659.500   21.665987
    1679.500   21.663151
    1699.500   21.660117
    1719.500   21.657072
    1739.500   21.654472
    1759.500   21.651664
    1779.500   21.648884
    1799.500   21.646154
    1819.500   21.643440
    1839.500   21.640802
    1859.500   21.638202
    1879.500   21.636490
    1899.500   21.634472
    1919.500   21.631991
    1939.500   21.629463
    1959.500   21.627145
    1979.500   21.624976
    1999.500   21.622787
    2049.500   21.617468
    2099.500   21.612433
    2149.500   21.608214
    2199.500   21.603975
    2249.500   21.599541
    2299.500   21.595520
    2349.500   21.591795
    2399.500   21.588511
    2449.500   21.585625
    2499.500   21.583141
    2549.500   21.579969
    2599.500   21.576901
    2649.500   21.574096
    2699.500   21.571573
    2749.500   21.569119
    2799.500   21.567045
    2849.500   21.564872
    2899.500   21.563120
    2949.500   21.561561
    2999.500   21.560042
    3049.500   21.558717
    3099.500   21.557116
    3149.500   21.555797
    3199.500   21.554466
    3249.500   21.553260
    3299.500   21.552132
    3349.500   21.551049
    3399.500   21.550023
    3449.500   21.549022
    3499.500   21.548112
    3549.500   21.547240
    3599.500   21.546401
    3649.500   21.545645
    3699.500   21.545061
    3749.500   21.544427
    3799.500   21.543775
    3849.500   21.543154
    3899.500   21.542561
    3949.500   21.542024
    3999.500   21.541533
    4049.500   21.541052
    4099.500   21.540619
    4149.500   21.540188
    4199.500   21.539808
    4249.500   21.539438
    4299.500   21.539455
    4349.500   21.539386
    4399.500   21.539188
    4449.500   21.538957
    4499.500   21.538734
    4549.500   21.538465
    4599.500   21.538202
    4649.500   21.537957
    4699.500   21.537914
    4749.500   21.537716
    4799.500   21.537491
    4849.500   21.537421
    4899.500   21.537160
    4949.500   21.536951
    4999.500   21.536740
    5049.500   21.536557
    5099.500   21.536408
    5149.500   21.536264
    5199.500   21.536130
    5249.500   21.536003
    5299.500   21.535885
    5349.500   21.535773
    5399.500   21.535667
    5449.500   21.535561
    5499.500   21.535451
    5549.500   21.535360
    5599.500   21.535278
    5649.500   21.535199
    5699.500   21.535133
    5749.500   21.535072
    5799.500   21.535009
    5849.500   21.534945
    5899.500   21.534888
    5949.500   21.534834
    5999.500   21.534780
    6049.500   21.534733
    6099.500   21.534687
    6149.500   21.534645
    6199.500   21.534611
    6249.500   21.534585
    6299.500   21.534539
    6349.500   21.534494
    6399.500   21.534453
    6449.500   21.534417
    6499.500   21.534384
    6549.500   21.534351
    6599.500   21.534321
    6649.500   21.534294
    6699.500   21.534268
    6749.500   21.534244
    6799.500   21.534222
    6849.500   21.534200
    6899.500   21.534179
    6949.500   21.534160
    6999.500   21.534142
    7049.500   21.534125
    7099.500   21.534109
    7149.500   21.534094
    7199.500   21.534080
    7249.500   21.534066
    7299.500   21.534054
    7349.500   21.534042
    7399.500   21.534030
    7449.500   21.534019
    7499.500   21.534008
    7549.500   21.533998
    7599.500   21.533989
    7649.500   21.533981
    7699.500   21.533972
    7749.500   21.533964
    7799.500   21.533956
    7849.500   21.533947
    7899.500   21.533940
    7949.500   21.533934
    7999.500   21.533928
    8049.500   21.533922
    8099.500   21.533917
    8149.500   21.533911
    8199.500   21.533906
    8249.500   21.533901
    8299.500   21.533897
    8349.500   21.533892
    8399.500   21.533888
    8449.500   21.533883
    8499.500   21.533881
    8549.500   21.533877
    8599.500   21.533873
    8649.500   21.533867
    8699.500   21.533867
    8749.500   21.533863
    8799.500   21.533862
    8849.500   21.533859
    8899.500   21.533853
    8949.500   21.533854
    8999.500   21.533852
    9049.500   21.533848
    9099.500   21.533845
    9149.500   21.533842
    9199.500   21.533842
    9249.500   21.533843
    9299.500   21.533838
    9349.500   21.533840
    9399.500   21.533838
    9449.500   21.533835
    9499.500   21.533833
    9549.500   21.533831
    9599.500   21.533831
    9649.500   21.533831
    9699.500   21.533828
    9749.500   21.533830
    9799.500   21.533826
    9849.500   21.533828
    9899.500   21.533827
    9949.500   21.533826
    9999.500   21.533825
