 % time (yr) / global pCO2_13C sea->air transfer flux (mol yr-1) / global pCO2_13C (o/oo)
       0.500 -0.1061343E+15       -13.566
       1.500 -0.7306985E+14       -18.168
       2.500 -0.5637463E+14       -19.873
       3.500 -0.4727490E+14       -20.962
       4.500 -0.4108685E+14       -21.755
       5.500 -0.3592835E+14       -22.510
       6.500 -0.3223016E+14       -22.981
       7.500 -0.2953230E+14       -23.305
       8.500 -0.2719912E+14       -23.599
       9.500 -0.2531298E+14       -23.801
      10.500 -0.2373531E+14       -23.968
      11.500 -0.2232422E+14       -24.093
      12.500 -0.2105296E+14       -24.213
      13.500 -0.1995325E+14       -24.277
      14.500 -0.1896467E+14       -24.316
      15.500 -0.1807148E+14       -24.341
      16.500 -0.1714853E+14       -24.406
      17.500 -0.1638503E+14       -24.394
      18.500 -0.1560471E+14       -24.410
      19.500 -0.1492939E+14       -24.365
      21.500 -0.1396206E+14       -24.160
      23.500 -0.1311775E+14       -23.983
      25.500 -0.1237295E+14       -23.824
      27.500 -0.1176016E+14       -23.642
      29.500 -0.1118117E+14       -23.512
      31.500 -0.1065544E+14       -23.412
      33.500 -0.1019014E+14       -23.314
      35.500 -0.9806101E+13       -23.213
      37.500 -0.9440703E+13       -23.137
      39.500 -0.9104760E+13       -23.047
      41.500 -0.8806451E+13       -22.967
      43.500 -0.8574112E+13       -22.864
      45.500 -0.8336591E+13       -22.756
      47.500 -0.8134805E+13       -22.632
      49.500 -0.7972759E+13       -22.456
      51.500 -0.7824952E+13       -22.287
      53.500 -0.7763048E+13       -22.067
      55.500 -0.7652375E+13       -21.913
      57.500 -0.7652577E+13       -21.671
      59.500 -0.7655577E+13       -21.446
      61.500 -0.7614279E+13       -21.289
      63.500 -0.7602791E+13       -21.094
      65.500 -0.7576124E+13       -20.919
      67.500 -0.7560605E+13       -20.762
      69.500 -0.7540247E+13       -20.619
      71.500 -0.7507869E+13       -20.479
      73.500 -0.7472311E+13       -20.351
      75.500 -0.7430364E+13       -20.234
      77.500 -0.7386361E+13       -20.128
      79.500 -0.7329027E+13       -20.047
      81.500 -0.7285346E+13       -19.937
      83.500 -0.7263924E+13       -19.828
      85.500 -0.7250154E+13       -19.722
      87.500 -0.7213675E+13       -19.639
      89.500 -0.7192424E+13       -19.550
      91.500 -0.7165544E+13       -19.467
      93.500 -0.7154333E+13       -19.408
      95.500 -0.7143326E+13       -19.357
      97.500 -0.7073415E+13       -19.322
      99.500 -0.7048901E+13       -19.260
     104.500 -0.6947176E+13       -19.173
     109.500 -0.6851375E+13       -19.081
     114.500 -0.6710804E+13       -18.996
     119.500 -0.6603813E+13       -18.895
     124.500 -0.6492162E+13       -18.805
     129.500 -0.6386960E+13       -18.737
     134.500 -0.6264863E+13       -18.671
     139.500 -0.6139983E+13       -18.583
     144.500 -0.6064790E+13       -18.497
     149.500 -0.5969012E+13       -18.428
     154.500 -0.5856880E+13       -18.361
     159.500 -0.5786509E+13       -18.282
     164.500 -0.5712974E+13       -18.222
     169.500 -0.5649315E+13       -18.162
     174.500 -0.5573432E+13       -18.132
     179.500 -0.5498542E+13       -18.094
     184.500 -0.5433738E+13       -18.053
     189.500 -0.5363513E+13       -18.024
     194.500 -0.5299715E+13       -18.006
     199.500 -0.5236754E+13       -17.992
     204.500 -0.5169209E+13       -17.983
     209.500 -0.5114019E+13       -17.975
     214.500 -0.5057197E+13       -17.966
     219.500 -0.5002647E+13       -17.960
     224.500 -0.4941960E+13       -17.962
     229.500 -0.4889316E+13       -17.965
     234.500 -0.4837697E+13       -17.971
     239.500 -0.4790994E+13       -17.972
     244.500 -0.4739670E+13       -17.980
     249.500 -0.4689355E+13       -17.997
     254.500 -0.4636904E+13       -18.012
     259.500 -0.4584182E+13       -18.025
     264.500 -0.4538683E+13       -18.051
     269.500 -0.4477467E+13       -18.066
     274.500 -0.4434681E+13       -18.079
     279.500 -0.4385707E+13       -18.103
     284.500 -0.4339088E+13       -18.127
     289.500 -0.4291822E+13       -18.152
     294.500 -0.4247995E+13       -18.178
     299.500 -0.4205804E+13       -18.207
     304.500 -0.4166782E+13       -18.240
     309.500 -0.4116602E+13       -18.281
     314.500 -0.4067852E+13       -18.321
     319.500 -0.4025199E+13       -18.345
     324.500 -0.3982568E+13       -18.380
     329.500 -0.3941381E+13       -18.417
     334.500 -0.3895603E+13       -18.460
     339.500 -0.3864480E+13       -18.489
     344.500 -0.3819087E+13       -18.539
     349.500 -0.3778616E+13       -18.581
     354.500 -0.3733453E+13       -18.627
     359.500 -0.3699244E+13       -18.679
     364.500 -0.3659549E+13       -18.727
     369.500 -0.3616318E+13       -18.775
     374.500 -0.3572717E+13       -18.829
     379.500 -0.3533731E+13       -18.878
     384.500 -0.3495086E+13       -18.930
     389.500 -0.3456154E+13       -18.985
     394.500 -0.3422417E+13       -19.039
     399.500 -0.3386745E+13       -19.098
     404.500 -0.3353268E+13       -19.158
     409.500 -0.3318234E+13       -19.228
     414.500 -0.3278011E+13       -19.302
     419.500 -0.3240615E+13       -19.370
     424.500 -0.3204219E+13       -19.445
     429.500 -0.3173706E+13       -19.522
     434.500 -0.3137046E+13       -19.598
     439.500 -0.3104143E+13       -19.665
     444.500 -0.3066718E+13       -19.747
     449.500 -0.3031633E+13       -19.824
     454.500 -0.2995076E+13       -19.911
     459.500 -0.2956682E+13       -19.996
     464.500 -0.2926629E+13       -20.067
     469.500 -0.2893335E+13       -20.154
     474.500 -0.2860396E+13       -20.245
     479.500 -0.2829119E+13       -20.327
     484.500 -0.2796075E+13       -20.416
     489.500 -0.2766443E+13       -20.511
     494.500 -0.2739631E+13       -20.593
     499.500 -0.2710359E+13       -20.680
     504.500 -0.2681365E+13       -20.767
     509.500 -0.2649026E+13       -20.860
     514.500 -0.2620005E+13       -20.947
     519.500 -0.2591356E+13       -21.050
     524.500 -0.2563006E+13       -21.133
     529.500 -0.2534087E+13       -21.220
     534.500 -0.2516047E+13       -21.291
     539.500 -0.2483735E+13       -21.387
     544.500 -0.2456894E+13       -21.469
     549.500 -0.2426444E+13       -21.560
     554.500 -0.2399717E+13       -21.636
     559.500 -0.2373488E+13       -21.710
     564.500 -0.2354234E+13       -21.774
     569.500 -0.2326840E+13       -21.856
     574.500 -0.2307626E+13       -21.909
     579.500 -0.2283958E+13       -21.959
     584.500 -0.2265640E+13       -22.025
     589.500 -0.2249878E+13       -22.059
     594.500 -0.2226693E+13       -22.122
     599.500 -0.2204182E+13       -22.170
     604.500 -0.2185794E+13       -22.213
     609.500 -0.2166307E+13       -22.253
     614.500 -0.2151081E+13       -22.278
     619.500 -0.2131471E+13       -22.318
     624.500 -0.2109445E+13       -22.369
     629.500 -0.2097091E+13       -22.386
     634.500 -0.2079359E+13       -22.412
     639.500 -0.2065177E+13       -22.434
     644.500 -0.2050185E+13       -22.457
     649.500 -0.2038201E+13       -22.457
     654.500 -0.2035360E+13       -22.436
     659.500 -0.2016669E+13       -22.459
     664.500 -0.1998506E+13       -22.486
     669.500 -0.1988361E+13       -22.492
     674.500 -0.1972827E+13       -22.503
     679.500 -0.1960906E+13       -22.501
     684.500 -0.1948577E+13       -22.496
     689.500 -0.1938568E+13       -22.479
     694.500 -0.1923708E+13       -22.489
     699.500 -0.1912753E+13       -22.491
     704.500 -0.1902454E+13       -22.487
     709.500 -0.1887813E+13       -22.490
     714.500 -0.1879079E+13       -22.464
     719.500 -0.1868265E+13       -22.477
     724.500 -0.1864327E+13       -22.438
     729.500 -0.1862331E+13       -22.412
     734.500 -0.1859994E+13       -22.387
     739.500 -0.1841298E+13       -22.445
     744.500 -0.1833994E+13       -22.450
     749.500 -0.1832025E+13       -22.410
     754.500 -0.1821347E+13       -22.406
     759.500 -0.1810130E+13       -22.410
     764.500 -0.1807787E+13       -22.409
     769.500 -0.1799169E+13       -22.445
     774.500 -0.1780524E+13       -22.524
     779.500 -0.1782136E+13       -22.499
     784.500 -0.1769069E+13       -22.651
     789.500 -0.1754889E+13       -22.743
     794.500 -0.1738877E+13       -22.757
     799.500 -0.1724956E+13       -22.771
     804.500 -0.1716615E+13       -22.749
     809.500 -0.1709789E+13       -22.706
     814.500 -0.1697864E+13       -22.726
     819.500 -0.1699112E+13       -22.659
     824.500 -0.1700930E+13       -22.623
     829.500 -0.1678528E+13       -22.719
     834.500 -0.1670772E+13       -22.723
     839.500 -0.1668051E+13       -22.711
     844.500 -0.1656692E+13       -22.745
     849.500 -0.1644375E+13       -22.767
     854.500 -0.1627187E+13       -22.812
     859.500 -0.1618039E+13       -22.813
     864.500 -0.1603685E+13       -22.838
     869.500 -0.1593327E+13       -22.847
     874.500 -0.1582072E+13       -22.865
     879.500 -0.1576969E+13       -22.852
     884.500 -0.1566475E+13       -22.857
     889.500 -0.1556996E+13       -22.863
     894.500 -0.1548006E+13       -22.867
     899.500 -0.1544340E+13       -22.845
     904.500 -0.1534212E+13       -22.851
     909.500 -0.1529420E+13       -22.835
     914.500 -0.1523572E+13       -22.823
     919.500 -0.1519288E+13       -22.804
     924.500 -0.1518424E+13       -22.809
     929.500 -0.1511532E+13       -22.800
     934.500 -0.1505806E+13       -22.797
     939.500 -0.1498693E+13       -22.791
     944.500 -0.1491183E+13       -22.794
     949.500 -0.1483003E+13       -22.799
     954.500 -0.1475447E+13       -22.803
     959.500 -0.1470330E+13       -22.796
     964.500 -0.1464034E+13       -22.801
     969.500 -0.1457765E+13       -22.800
     974.500 -0.1451855E+13       -22.799
     979.500 -0.1449816E+13       -22.778
     984.500 -0.1441739E+13       -22.804
     989.500 -0.1435199E+13       -22.809
     994.500 -0.1429236E+13       -22.806
     999.500 -0.1431849E+13       -22.764
    1019.500 -0.1401715E+13       -22.802
    1039.500 -0.1379865E+13       -22.803
    1059.500 -0.1365547E+13       -22.767
    1079.500 -0.1345828E+13       -22.768
    1099.500 -0.1328675E+13       -22.757
    1119.500 -0.1315475E+13       -22.725
    1139.500 -0.1304527E+13       -22.703
    1159.500 -0.1290667E+13       -22.668
    1179.500 -0.1274714E+13       -22.659
    1199.500 -0.1260390E+13       -22.650
    1219.500 -0.1257760E+13       -22.599
    1239.500 -0.1240496E+13       -22.644
    1259.500 -0.1233870E+13       -22.596
    1279.500 -0.1213994E+13       -22.654
    1299.500 -0.1205822E+13       -22.646
    1319.500 -0.1195182E+13       -22.641
    1339.500 -0.1184864E+13       -22.642
    1359.500 -0.1176989E+13       -22.635
    1379.500 -0.1166227E+13       -22.644
    1399.500 -0.1155513E+13       -22.672
    1419.500 -0.1142622E+13       -22.687
    1439.500 -0.1131986E+13       -22.704
    1459.500 -0.1123229E+13       -22.714
    1479.500 -0.1116308E+13       -22.712
    1499.500 -0.1106906E+13       -22.735
    1519.500 -0.1100442E+13       -22.736
    1539.500 -0.1087079E+13       -22.795
    1559.500 -0.1080215E+13       -22.800
    1579.500 -0.1072090E+13       -22.819
    1599.500 -0.1063435E+13       -22.846
    1619.500 -0.1052338E+13       -22.885
    1639.500 -0.1049955E+13       -22.861
    1659.500 -0.1039148E+13       -22.912
    1679.500 -0.1031660E+13       -22.945
    1699.500 -0.1023834E+13       -22.970
    1719.500 -0.1016340E+13       -22.999
    1739.500 -0.1010030E+13       -23.027
    1759.500 -0.1001796E+13       -23.058
    1779.500 -0.9964898E+12       -23.068
    1799.500 -0.9885792E+12       -23.100
    1819.500 -0.9823368E+12       -23.126
    1839.500 -0.9752765E+12       -23.155
    1859.500 -0.9675045E+12       -23.187
    1879.500 -0.9641319E+12       -23.229
    1899.500 -0.9547369E+12       -23.255
    1919.500 -0.9494447E+12       -23.269
    1939.500 -0.9435972E+12       -23.293
    1959.500 -0.9377156E+12       -23.325
    1979.500 -0.9325890E+12       -23.348
    1999.500 -0.9267371E+12       -23.372
    2049.500 -0.9143637E+12       -23.422
    2099.500 -0.9020260E+12       -23.479
    2149.500 -0.8933897E+12       -23.505
    2199.500 -0.8815152E+12       -23.588
    2249.500 -0.8687368E+12       -23.666
    2299.500 -0.8547900E+12       -23.795
    2349.500 -0.8458841E+12       -23.826
    2399.500 -0.8351823E+12       -23.891
    2449.500 -0.8252940E+12       -23.960
    2499.500 -0.8170091E+12       -24.072
    2549.500 -0.8090456E+12       -24.142
    2599.500 -0.8012272E+12       -24.211
    2649.500 -0.7925601E+12       -24.300
    2699.500 -0.7847214E+12       -24.382
    2749.500 -0.7777103E+12       -24.453
    2799.500 -0.7728530E+12       -24.500
    2849.500 -0.7640751E+12       -24.609
    2899.500 -0.7617149E+12       -24.652
    2949.500 -0.7555496E+12       -24.747
    2999.500 -0.7477955E+12       -24.862
    3049.500 -0.7440372E+12       -24.945
    3099.500 -0.7360085E+12       -25.063
    3149.500 -0.7288682E+12       -25.180
    3199.500 -0.7224722E+12       -25.291
    3249.500 -0.7171842E+12       -25.393
    3299.500 -0.7110310E+12       -25.509
    3349.500 -0.7056100E+12       -25.617
    3399.500 -0.7004776E+12       -25.727
    3449.500 -0.6956526E+12       -25.833
    3499.500 -0.6917926E+12       -25.926
    3549.500 -0.6877722E+12       -26.025
    3599.500 -0.6833031E+12       -26.134
    3649.500 -0.6788696E+12       -26.240
    3699.500 -0.6748194E+12       -26.356
    3749.500 -0.6701198E+12       -26.466
    3799.500 -0.6664525E+12       -26.569
    3849.500 -0.6630129E+12       -26.670
    3899.500 -0.6600444E+12       -26.764
    3949.500 -0.6566696E+12       -26.869
    3999.500 -0.6532777E+12       -26.974
    4049.500 -0.6469693E+12       -27.116
    4099.500 -0.6469141E+12       -27.165
    4149.500 -0.6442044E+12       -27.260
    4199.500 -0.6419844E+12       -27.346
    4249.500 -0.6395074E+12       -27.440
    4299.500 -0.6349907E+12       -27.584
    4349.500 -0.6324467E+12       -27.672
    4399.500 -0.6310210E+12       -27.742
    4449.500 -0.6279011E+12       -27.852
    4499.500 -0.6258854E+12       -27.941
    4549.500 -0.6236307E+12       -28.034
    4599.500 -0.6213244E+12       -28.129
    4649.500 -0.6195472E+12       -28.213
    4699.500 -0.6173343E+12       -28.311
    4749.500 -0.6150440E+12       -28.404
    4799.500 -0.6128980E+12       -28.496
    4849.500 -0.6103032E+12       -28.595
    4899.500 -0.6085195E+12       -28.682
    4949.500 -0.6068899E+12       -28.762
    4999.500 -0.6060385E+12       -28.821
    5049.500 -0.6030973E+12       -28.931
    5099.500 -0.6012227E+12       -29.017
    5149.500 -0.5995461E+12       -29.098
    5199.500 -0.5979373E+12       -29.177
    5249.500 -0.5963793E+12       -29.255
    5299.500 -0.5948580E+12       -29.331
    5349.500 -0.5934558E+12       -29.405
    5399.500 -0.5918464E+12       -29.483
    5449.500 -0.5908697E+12       -29.544
    5499.500 -0.5894477E+12       -29.613
    5549.500 -0.5885263E+12       -29.671
    5599.500 -0.5872523E+12       -29.737
    5649.500 -0.5861339E+12       -29.798
    5699.500 -0.5849014E+12       -29.862
    5749.500 -0.5837275E+12       -29.924
    5799.500 -0.5810125E+12       -30.023
    5849.500 -0.5827202E+12       -30.009
    5899.500 -0.5802822E+12       -30.100
    5949.500 -0.5794019E+12       -30.152
    5999.500 -0.5784930E+12       -30.204
    6049.500 -0.5776373E+12       -30.253
    6099.500 -0.5767989E+12       -30.302
    6149.500 -0.5760540E+12       -30.348
    6199.500 -0.5753741E+12       -30.392
    6249.500 -0.5749538E+12       -30.428
    6299.500 -0.5741289E+12       -30.473
    6349.500 -0.5733411E+12       -30.517
    6399.500 -0.5725798E+12       -30.559
    6449.500 -0.5718518E+12       -30.601
    6499.500 -0.5711583E+12       -30.641
    6549.500 -0.5705028E+12       -30.679
    6599.500 -0.5698668E+12       -30.717
    6649.500 -0.5692576E+12       -30.753
    6699.500 -0.5686625E+12       -30.789
    6749.500 -0.5681077E+12       -30.822
    6799.500 -0.5675645E+12       -30.856
    6849.500 -0.5670554E+12       -30.887
    6899.500 -0.5665392E+12       -30.919
    6949.500 -0.5660463E+12       -30.949
    6999.500 -0.5655785E+12       -30.978
    7049.500 -0.5650334E+12       -31.009
    7099.500 -0.5646231E+12       -31.035
    7149.500 -0.5642061E+12       -31.061
    7199.500 -0.5638075E+12       -31.086
    7249.500 -0.5634364E+12       -31.110
    7299.500 -0.5630689E+12       -31.133
    7349.500 -0.5627225E+12       -31.155
    7399.500 -0.5623802E+12       -31.177
    7449.500 -0.5620582E+12       -31.197
    7499.500 -0.5617330E+12       -31.218
    7549.500 -0.5614217E+12       -31.237
    7599.500 -0.5611322E+12       -31.256
    7649.500 -0.5608551E+12       -31.274
    7699.500 -0.5605886E+12       -31.291
    7749.500 -0.5603321E+12       -31.308
    7799.500 -0.5600865E+12       -31.325
    7849.500 -0.5598475E+12       -31.340
    7899.500 -0.5596190E+12       -31.356
    7949.500 -0.5593995E+12       -31.370
    7999.500 -0.5591886E+12       -31.384
    8049.500 -0.5589866E+12       -31.398
    8099.500 -0.5587924E+12       -31.411
    8149.500 -0.5586062E+12       -31.424
    8199.500 -0.5584275E+12       -31.436
    8249.500 -0.5582560E+12       -31.447
    8299.500 -0.5580914E+12       -31.459
    8349.500 -0.5579334E+12       -31.469
    8399.500 -0.5577819E+12       -31.480
    8449.500 -0.5575957E+12       -31.491
    8499.500 -0.5574839E+12       -31.500
    8549.500 -0.5575712E+12       -31.502
    8599.500 -0.5574302E+12       -31.511
    8649.500 -0.5573846E+12       -31.517
    8699.500 -0.5571691E+12       -31.528
    8749.500 -0.5570388E+12       -31.537
    8799.500 -0.5569412E+12       -31.544
    8849.500 -0.5568185E+12       -31.551
    8899.500 -0.5567843E+12       -31.556
    8949.500 -0.5566313E+12       -31.564
    8999.500 -0.5565375E+12       -31.571
    9049.500 -0.5565373E+12       -31.574
    9099.500 -0.5564060E+12       -31.581
    9149.500 -0.5563156E+12       -31.587
    9199.500 -0.5562530E+12       -31.592
    9249.500 -0.5561095E+12       -31.600
    9299.500 -0.5560916E+12       -31.603
    9349.500 -0.5559757E+12       -31.609
    9399.500 -0.5558955E+12       -31.614
    9449.500 -0.5559275E+12       -31.615
    9499.500 -0.5558205E+12       -31.621
    9549.500 -0.5557534E+12       -31.625
    9599.500 -0.5557110E+12       -31.629
    9649.500 -0.5555545E+12       -31.636
    9699.500 -0.5555916E+12       -31.637
    9749.500 -0.5554848E+12       -31.642
    9799.500 -0.5554867E+12       -31.644
    9849.500 -0.5553517E+12       -31.650
    9899.500 -0.5553060E+12       -31.653
    9949.500 -0.5552624E+12       -31.656
    9999.500 -0.5552491E+12       -31.658
