 % time (yr) / temperature (C) / _surT (ice-free) (C) / _benT (C) / _surT (C)
       0.500   10.019698   12.080502    9.970318   12.080502
       1.500   10.059586   14.791895    9.927221   14.791895
       2.500   10.092142   16.263238    9.892777   16.263238
       3.500   10.119960   17.202151    9.862625   17.202151
       4.500   10.144552   17.875692    9.835192   17.875692
       5.500   10.166719   18.402026    9.809515   18.402026
       6.500   10.186946   18.834337    9.785298   18.834337
       7.500   10.205560   19.200677    9.762078   19.200677
       8.500   10.222798   19.518045    9.739577   19.518045
       9.500   10.238838   19.797851    9.717630   19.797851
      10.500   10.253818   20.047096    9.696219   20.047096
      11.500   10.267853   20.271768    9.675007   20.271768
      12.500   10.281025   20.477887    9.654142   20.477887
      13.500   10.293408   20.667106    9.633417   20.667106
      14.500   10.305060   20.843187    9.612704   20.843187
      15.500   10.316030   21.006977    9.591754   21.006977
      16.500   10.326368   21.159129    9.570810   21.159129
      17.500   10.336111   21.302434    9.549943   21.302434
      18.500   10.345288   21.438334    9.529013   21.438334
      19.500   10.353920   21.568116    9.508056   21.568116
      21.500   10.369676   21.805495    9.464587   21.805495
      23.500   10.383625   22.015816    9.418469   22.015816
      25.500   10.395970   22.204186    9.369205   22.204186
      27.500   10.406876   22.374589    9.317465   22.374589
      29.500   10.416451   22.533688    9.264596   22.533688
      31.500   10.424809   22.679270    9.211807   22.679270
      33.500   10.432046   22.815314    9.160072   22.815314
      35.500   10.438229   22.943671    9.109542   22.943671
      37.500   10.443403   23.064969    9.059967   23.064969
      39.500   10.447654   23.175932    9.011398   23.175932
      41.500   10.451041   23.280635    8.963898   23.280635
      43.500   10.453618   23.378711    8.917877   23.378711
      45.500   10.455429   23.471652    8.872987   23.471652
      47.500   10.456535   23.556158    8.828642   23.556158
      49.500   10.457014   23.631213    8.784727   23.631213
      51.500   10.456943   23.698163    8.740964   23.698163
      53.500   10.456381   23.758140    8.697595   23.758140
      55.500   10.455379   23.811950    8.654824   23.811950
      57.500   10.454000   23.857723    8.613044   23.857723
      59.500   10.452296   23.898271    8.572187   23.898271
      61.500   10.450299   23.935224    8.532228   23.935224
      63.500   10.448022   23.970387    8.493333   23.970387
      65.500   10.445483   24.002187    8.456291   24.002187
      67.500   10.442704   24.031235    8.421522   24.031235
      69.500   10.439703   24.057181    8.388963   24.057181
      71.500   10.436505   24.079575    8.358532   24.079575
      73.500   10.433132   24.099038    8.329813   24.099038
      75.500   10.429606   24.115600    8.302742   24.115600
      77.500   10.425950   24.129700    8.277391   24.129700
      79.500   10.422182   24.142074    8.253719   24.142074
      81.500   10.418316   24.153265    8.231615   24.153265
      83.500   10.414360   24.163599    8.211071   24.163599
      85.500   10.410323   24.173223    8.192001   24.173223
      87.500   10.406207   24.182727    8.174269   24.182727
      89.500   10.402015   24.192217    8.157799   24.192217
      91.500   10.397744   24.201945    8.142449   24.201945
      93.500   10.393389   24.212486    8.128098   24.212486
      95.500   10.388949   24.222885    8.114745   24.222885
      97.500   10.384429   24.232992    8.102234   24.232992
      99.500   10.379825   24.243741    8.090457   24.243741
     104.500   10.367954   24.270419    8.063913   24.270419
     109.500   10.355556   24.297758    8.040601   24.297758
     114.500   10.342640   24.324065    8.019671   24.324065
     119.500   10.329229   24.349702    8.000594   24.349702
     124.500   10.315354   24.372878    7.983146   24.372878
     129.500   10.301058   24.394623    7.967111   24.394623
     134.500   10.286360   24.414759    7.952304   24.414759
     139.500   10.271301   24.432675    7.938670   24.432675
     144.500   10.255905   24.449628    7.926114   24.449628
     149.500   10.240190   24.465061    7.914312   24.465061
     154.500   10.224182   24.478919    7.903174   24.478919
     159.500   10.207922   24.490390    7.892594   24.490390
     164.500   10.191464   24.499010    7.882401   24.499010
     169.500   10.174837   24.506906    7.872542   24.506906
     174.500   10.158071   24.512876    7.862890   24.512876
     179.500   10.141214   24.516500    7.853334   24.516500
     184.500   10.124297   24.519820    7.843836   24.519820
     189.500   10.107326   24.522411    7.834317   24.522411
     194.500   10.090316   24.524543    7.824772   24.524543
     199.500   10.073278   24.526159    7.815197   24.526159
     204.500   10.056220   24.527383    7.805575   24.527383
     209.500   10.039153   24.528323    7.795895   24.528323
     214.500   10.022080   24.528715    7.786177   24.528715
     219.500   10.005013   24.528602    7.776359   24.528602
     224.500    9.987960   24.528183    7.766430   24.528183
     229.500    9.970930   24.527152    7.756378   24.527152
     234.500    9.953929   24.525947    7.746200   24.525947
     239.500    9.936965   24.524020    7.735894   24.524020
     244.500    9.920049   24.521767    7.725446   24.521767
     249.500    9.903187   24.519036    7.714857   24.519036
     254.500    9.886389   24.515877    7.704111   24.515877
     259.500    9.869662   24.512352    7.693211   24.512352
     264.500    9.853013   24.508429    7.682167   24.508429
     269.500    9.836454   24.503971    7.670939   24.503971
     274.500    9.819988   24.499601    7.659544   24.499601
     279.500    9.803615   24.495123    7.647988   24.495123
     284.500    9.787339   24.490438    7.636289   24.490438
     289.500    9.771162   24.485617    7.624436   24.485617
     294.500    9.755087   24.480694    7.612425   24.480694
     299.500    9.739115   24.475694    7.600247   24.475694
     304.500    9.723246   24.470883    7.587920   24.470883
     309.500    9.707475   24.466017    7.575455   24.466017
     314.500    9.691813   24.460571    7.562853   24.460571
     319.500    9.676262   24.455206    7.550113   24.455206
     324.500    9.660822   24.449793    7.537247   24.449793
     329.500    9.645494   24.444353    7.524261   24.444353
     334.500    9.630279   24.438913    7.511164   24.438913
     339.500    9.615175   24.433595    7.497965   24.433595
     344.500    9.600180   24.428342    7.484664   24.428342
     349.500    9.585294   24.422936    7.471275   24.422936
     354.500    9.570520   24.417646    7.457804   24.417646
     359.500    9.555850   24.412626    7.444268   24.412626
     364.500    9.541285   24.407464    7.430750   24.407464
     369.500    9.526828   24.402157    7.417150   24.402157
     374.500    9.512480   24.396763    7.403515   24.396763
     379.500    9.498245   24.391346    7.389858   24.391346
     384.500    9.484121   24.385944    7.376185   24.385944
     389.500    9.470108   24.380563    7.362506   24.380563
     394.500    9.456204   24.375205    7.348832   24.375205
     399.500    9.442411   24.369956    7.335154   24.369956
     404.500    9.428727   24.364578    7.321508   24.364578
     409.500    9.415148   24.359666    7.307812   24.359666
     414.500    9.401670   24.354713    7.294231   24.354713
     419.500    9.388298   24.349355    7.280697   24.349355
     424.500    9.375034   24.344122    7.267200   24.344122
     429.500    9.361885   24.338488    7.253874   24.338488
     434.500    9.348850   24.333110    7.240579   24.333110
     439.500    9.335926   24.327524    7.227255   24.327524
     444.500    9.323119   24.322108    7.213904   24.322108
     449.500    9.310421   24.316913    7.200691   24.316913
     454.500    9.297828   24.311989    7.187585   24.311989
     459.500    9.285336   24.306985    7.174555   24.306985
     464.500    9.272948   24.302058    7.161583   24.302058
     469.500    9.260661   24.297242    7.148700   24.297242
     474.500    9.248472   24.292557    7.135890   24.292557
     479.500    9.236380   24.287967    7.123158   24.287967
     484.500    9.224376   24.283894    7.110480   24.283894
     489.500    9.212457   24.279841    7.097878   24.279841
     494.500    9.200618   24.276003    7.085347   24.276003
     499.500    9.188858   24.271980    7.072894   24.271980
     504.500    9.177185   24.267703    7.060529   24.267703
     509.500    9.165599   24.263418    7.048232   24.263418
     514.500    9.154100   24.259127    7.036000   24.259127
     519.500    9.142688   24.255097    7.023848   24.255097
     524.500    9.131360   24.250903    7.011779   24.250903
     529.500    9.120117   24.246822    6.999794   24.246822
     534.500    9.108955   24.243048    6.987888   24.243048
     539.500    9.097868   24.239388    6.975970   24.239388
     544.500    9.086858   24.235613    6.964196   24.235613
     549.500    9.075926   24.231788    6.952438   24.231788
     554.500    9.065071   24.228047    6.940834   24.228047
     559.500    9.054291   24.224385    6.929355   24.224385
     564.500    9.043585   24.220762    6.917948   24.220762
     569.500    9.032954   24.217128    6.906630   24.217128
     574.500    9.022396   24.213556    6.895390   24.213556
     579.500    9.011910   24.210111    6.884226   24.210111
     584.500    9.001491   24.206805    6.873144   24.206805
     589.500    8.991140   24.203585    6.862138   24.203585
     594.500    8.980855   24.200252    6.851224   24.200252
     599.500    8.970638   24.196989    6.840409   24.196989
     604.500    8.960487   24.193646    6.829652   24.193646
     609.500    8.950404   24.190331    6.818971   24.190331
     614.500    8.940389   24.187042    6.808366   24.187042
     619.500    8.930440   24.183852    6.797826   24.183852
     624.500    8.920554   24.180822    6.787322   24.180822
     629.500    8.910728   24.177950    6.776933   24.177950
     634.500    8.900961   24.174946    6.766633   24.174946
     639.500    8.891255   24.171861    6.756404   24.171861
     644.500    8.881613   24.168788    6.746243   24.168788
     649.500    8.872032   24.165733    6.736152   24.165733
     654.500    8.862509   24.163141    6.726132   24.163141
     659.500    8.853045   24.160123    6.716179   24.160123
     664.500    8.843642   24.157122    6.706282   24.157122
     669.500    8.834299   24.154327    6.696446   24.154327
     674.500    8.825013   24.151504    6.686660   24.151504
     679.500    8.815783   24.148757    6.676953   24.148757
     684.500    8.806610   24.145914    6.667309   24.145914
     689.500    8.797495   24.143063    6.657723   24.143063
     694.500    8.788438   24.140201    6.648202   24.140201
     699.500    8.779440   24.137374    6.638726   24.137374
     704.500    8.770499   24.134540    6.629341   24.134540
     709.500    8.761616   24.131765    6.620008   24.131765
     714.500    8.752786   24.129420    6.610729   24.129420
     719.500    8.744003   24.127115    6.601494   24.127115
     724.500    8.735272   24.124800    6.592320   24.124800
     729.500    8.726573   24.123661    6.583223   24.123661
     734.500    8.717910   24.121599    6.574139   24.121599
     739.500    8.709301   24.118874    6.565135   24.118874
     744.500    8.700756   24.116134    6.556242   24.116134
     749.500    8.692273   24.112961    6.547366   24.112961
     754.500    8.683862   24.109649    6.538628   24.109649
     759.500    8.675523   24.106214    6.529841   24.106214
     764.500    8.667257   24.102852    6.521236   24.102852
     769.500    8.659072   24.098950    6.512680   24.098950
     774.500    8.650976   24.094670    6.504059   24.094670
     779.500    8.642985   24.089164    6.495578   24.089164
     784.500    8.635154   24.081580    6.487156   24.081580
     789.500    8.627496   24.074121    6.478706   24.074121
     794.500    8.619993   24.067982    6.470164   24.067982
     799.500    8.612600   24.063876    6.461618   24.063876
     804.500    8.605281   24.060747    6.453029   24.060747
     809.500    8.598014   24.058275    6.444482   24.058275
     814.500    8.590791   24.056253    6.436081   24.056253
     819.500    8.583602   24.054624    6.427804   24.054624
     824.500    8.576441   24.052915    6.419675   24.052915
     829.500    8.569313   24.050797    6.411587   24.050797
     834.500    8.562220   24.048650    6.403634   24.048650
     839.500    8.555163   24.046317    6.395756   24.046317
     844.500    8.548143   24.043973    6.387954   24.043973
     849.500    8.541165   24.041218    6.380218   24.041218
     854.500    8.534238   24.038281    6.372527   24.038281
     859.500    8.527366   24.035380    6.364893   24.035380
     864.500    8.520545   24.032682    6.357353   24.032682
     869.500    8.513777   24.030162    6.349884   24.030162
     874.500    8.507056   24.027956    6.342455   24.027956
     879.500    8.500376   24.026195    6.335083   24.026195
     884.500    8.493735   24.024465    6.327782   24.024465
     889.500    8.487130   24.022906    6.320556   24.022906
     894.500    8.480556   24.021645    6.313375   24.021645
     899.500    8.474007   24.020560    6.306244   24.020560
     904.500    8.467487   24.019327    6.299173   24.019327
     909.500    8.460994   24.018097    6.292169   24.018097
     914.500    8.454528   24.016856    6.285227   24.016856
     919.500    8.448089   24.015548    6.278347   24.015548
     924.500    8.441675   24.014424    6.271528   24.014424
     929.500    8.435287   24.013025    6.264768   24.013025
     934.500    8.428927   24.011627    6.258053   24.011627
     939.500    8.422597   24.010093    6.251385   24.010093
     944.500    8.416298   24.008509    6.244776   24.008509
     949.500    8.410031   24.006803    6.238226   24.006803
     954.500    8.403799   24.005115    6.231730   24.005115
     959.500    8.397600   24.003353    6.225280   24.003353
     964.500    8.391436   24.001670    6.218877   24.001670
     969.500    8.385307   23.999875    6.212518   23.999875
     974.500    8.379215   23.998065    6.206202   23.998065
     979.500    8.373159   23.996241    6.200017   23.996241
     984.500    8.367136   23.994711    6.193882   23.994711
     989.500    8.361149   23.992882    6.187749   23.992882
     994.500    8.355199   23.991075    6.181660   23.991075
     999.500    8.349284   23.989437    6.175620   23.989437
    1019.500    8.325963   23.982603    6.151846   23.982603
    1039.500    8.303192   23.975812    6.128634   23.975812
    1059.500    8.280972   23.968958    6.105788   23.968958
    1079.500    8.259290   23.962482    6.083421   23.962482
    1099.500    8.238126   23.956220    6.061893   23.956220
    1119.500    8.217481   23.949756    6.040881   23.949756
    1139.500    8.197346   23.943859    6.020303   23.943859
    1159.500    8.177704   23.937492    6.000207   23.937492
    1179.500    8.158541   23.931800    5.980477   23.931800
    1199.500    8.139836   23.926315    5.961148   23.926315
    1219.500    8.121554   23.921497    5.942031   23.921497
    1239.500    8.103643   23.916677    5.923442   23.916677
    1259.500    8.086148   23.911412    5.905269   23.911412
    1279.500    8.069071   23.906418    5.887387   23.906418
    1299.500    8.052369   23.901770    5.869901   23.901770
    1319.500    8.036062   23.896742    5.852806   23.896742
    1339.500    8.020155   23.891875    5.836083   23.891875
    1359.500    8.004640   23.887016    5.819785   23.887016
    1379.500    7.989503   23.882429    5.803894   23.882429
    1399.500    7.974710   23.878476    5.788298   23.878476
    1419.500    7.960253   23.874127    5.773078   23.874127
    1439.500    7.946143   23.869851    5.758230   23.869851
    1459.500    7.932370   23.865820    5.743662   23.865820
    1479.500    7.918923   23.861678    5.729453   23.861678
    1499.500    7.905800   23.857835    5.715329   23.857835
    1519.500    7.892980   23.854135    5.701595   23.854135
    1539.500    7.880454   23.850501    5.688176   23.850501
    1559.500    7.868214   23.846934    5.675009   23.846934
    1579.500    7.856260   23.843372    5.662276   23.843372
    1599.500    7.844587   23.839897    5.649902   23.839897
    1619.500    7.833188   23.836563    5.637815   23.836563
    1639.500    7.822054   23.833344    5.626014   23.833344
    1659.500    7.811169   23.830269    5.614472   23.830269
    1679.500    7.800515   23.827411    5.603237   23.827411
    1699.500    7.790107   23.824331    5.592299   23.824331
    1719.500    7.779946   23.821248    5.581629   23.821248
    1739.500    7.770006   23.818653    5.571234   23.818653
    1759.500    7.760294   23.815827    5.561109   23.815827
    1779.500    7.750808   23.813039    5.551266   23.813039
    1799.500    7.741546   23.810280    5.541458   23.810280
    1819.500    7.732504   23.807521    5.531877   23.807521
    1839.500    7.723679   23.804850    5.522624   23.804850
    1859.500    7.715068   23.802224    5.513635   23.802224
    1879.500    7.706648   23.800571    5.504892   23.800571
    1899.500    7.698356   23.798519    5.496241   23.798519
    1919.500    7.690246   23.795979    5.487806   23.795979
    1939.500    7.682346   23.793423    5.479597   23.793423
    1959.500    7.674640   23.791090    5.471605   23.791090
    1979.500    7.667115   23.788896    5.463863   23.788896
    1999.500    7.659767   23.786675    5.456361   23.786675
    2049.500    7.642164   23.781269    5.438319   23.781269
    2099.500    7.625614   23.776181    5.421390   23.776181
    2149.500    7.610015   23.771976    5.405553   23.771976
    2199.500    7.595233   23.767720    5.390757   23.767720
    2249.500    7.581363   23.763236    5.376700   23.763236
    2299.500    7.568356   23.759159    5.363038   23.759159
    2349.500    7.556112   23.755388    5.350053   23.755388
    2399.500    7.544590   23.751970    5.337850   23.751970
    2449.500    7.533717   23.749008    5.326446   23.749008
    2499.500    7.523346   23.746474    5.315548   23.746474
    2549.500    7.513570   23.743238    5.305091   23.743238
    2599.500    7.504435   23.740130    5.295255   23.740130
    2649.500    7.495896   23.737294    5.285865   23.737294
    2699.500    7.487896   23.734755    5.276929   23.734755
    2749.500    7.480402   23.732254    5.268409   23.732254
    2799.500    7.473387   23.730165    5.260258   23.730165
    2849.500    7.466794   23.727963    5.252541   23.727963
    2899.500    7.460600   23.726185    5.245196   23.726185
    2949.500    7.454740   23.724610    5.238196   23.724610
    2999.500    7.449180   23.723027    5.231433   23.723027
    3049.500    7.443934   23.721655    5.224996   23.721655
    3099.500    7.438995   23.720026    5.218868   23.720026
    3149.500    7.434345   23.718665    5.213011   23.718665
    3199.500    7.429969   23.717298    5.207472   23.717298
    3249.500    7.425850   23.716057    5.202187   23.716057
    3299.500    7.421973   23.714909    5.197156   23.714909
    3349.500    7.418320   23.713815    5.192375   23.713815
    3399.500    7.414884   23.712767    5.187815   23.712767
    3449.500    7.411655   23.711745    5.183469   23.711745
    3499.500    7.408622   23.710814    5.179263   23.710814
    3549.500    7.405771   23.709932    5.175316   23.709932
    3599.500    7.403095   23.709075    5.171594   23.709075
    3649.500    7.400576   23.708286    5.168061   23.708286
    3699.500    7.398202   23.707719    5.164701   23.707719
    3749.500    7.395955   23.707094    5.161500   23.707094
    3799.500    7.393840   23.706429    5.158451   23.706429
